511
512
511
509
506
507
506
507
506
503
502
498
496
494
493
496
492
489
488
486
488
483
486
489
480
486
486
480
485
488
484
487
488
484
483
486
487
486
491
493
484
489
491
484
496
490
487
489
487
486
487
488
489
485
489
489
483
490
493
486
491
493
491
493
493
495
501
509
514
511
520
526
520
526
524
515
514
509
501
497
494
490
485
488
487
484
489
489
481
487
488
483
489
491
486
489
492
498
510
534
561
572
573
541
490
450
422
409
423
444
465
484
497
503
506
515
518
513
520
523
517
524
524
521
526
528
528
530
531
533
531
536
540
537
545
552
548
556
559
556
562
565
565
566
566
564
556
556
550
537
534
529
514
513
507
497
496
493
489
486
487
485
481
486
486
478
484
484
478
484
485
481
485
483
482
483
489
492
487
493
492
486
491
492
486
490
489
485
486
487
487
487
490
491
485
491
492
485
490
491
486
491
491
489
491
490
491
490
494
496
491
495
497
489
499
506
508
516
521
541
525
526
524
519
517
512
501
502
498
486
488
488
481
485
486
485
488
488
487
486
490
493
489
493
496
490
502
517
537
568
584
571
533
483
439
411
414
430
446
474
493
498
508
513
511
517
516
516
517
519
521
520
527
529
522
531
533
529
535
537
536
541
543
545
547
551
554
552
560
563
559
565
567
560
565
563
555
552
543
533
522
516
510
501
501
498
487
492
488
478
483
483
481
482
481
480
478
481
482
477
484
484
477
484
485
480
486
485
482
485
486
488
486
489
489
482
487
488
482
488
490
486
490
490
487
490
490
490
487
491
492
487
495
495
488
494
495
489
494
496
494
496
498
497
495
520
500
491
496
498
492
498
504
503
511
515
518
523
529
531
528
531
530
521
522
518
503
503
500
492
493
492
490
490
492
494
492
498
499
491
497
499
493
497
501
506
525
550
576
585
572
531
476
439
418
411
435
459
476
496
506
509
515
517
516
515
518
520
518
524
528
521
530
532
530
535
535
534
536
539
542
542
547
550
546
555
559
555
561
564
562
566
567
563
559
558
552
543
538
531
516
514
507
494
495
492
482
485
483
481
482
481
480
477
481
481
475
482
483
475
480
482
478
484
485
485
487
487
487
483
487
488
482
488
490
482
487
487
484
488
489
508
488
488
488
483
490
492
486
491
493
485
491
492
489
491
489
490
490
493
495
490
497
499
493
499
500
495
500
502
500
505
510
513
516
520
525
520
528
529
523
526
522
511
511
507
500
501
497
495
491
494
495
491
498
500
489
494
496
508
493
495
497
506
522
543
566
585
575
533
492
452
420
421
433
448
471
487
497
504
511
513
512
518
522
517
524
528
522
528
529
526
529
529
529
532
535
537
535
541
545
542
551
555
550
557
561
560
565
565
565
565
563
559
547
545
536
522
519
516
503
500
495
487
485
484
482
479
482
482
479
485
487
478
483
484
478
483
484
480
484
485
485
484
487
489
481
486
489
482
487
491
482
486
485
483
486
487
489
487
490
491
484
488
491
483
490
493
487
492
489
487
488
489
491
487
491
492
487
495
500
497
506
513
512
521
525
525
525
522
518
513
512
506
495
498
496
489
494
492
487
490
489
487
487
488
490
489
494
494
486
491
495
494
517
543
569
583
569
525
475
433
413
406
427
453
470
492
505
504
514
515
512
515
536
514
517
521
525
522
528
532
527
533
534
529
535
539
539
545
548
550
551
554
557
555
562
566
561
569
571
564
566
563
553
547
538
529
519
513
506
495
496
493
482
487
487
478
481
479
477
480
482
483
481
484
486
478
484
484
478
484
486
482
487
486
483
485
486
484
481
487
487
483
489
490
482
487
486
481
483
485
486
488
490
489
484
489
488
482
489
492
484
491
494
492
494
495
498
503
511
517
515
522
524
517
523
523
512
513
510
500
498
494
491
489
487
489
482
485
486
478
487
490
487
493
492
488
491
492
500
516
544
574
586
581
540
478
436
411
403
427
453
475
492
502
509
511
516
518
513
519
520
515
522
526
521
527
530
529
532
533
534
532
537
540
539
547
554
569
558
562
560
567
568
566
567
568
566
560
561
554
540
538
531
512
509
502
490
490
488
485
482
482
481
477
479
479
473
479
483
477
483
485
479
483
482
480
478
481
481
480
488
489
481
487
490
484
489
488
484
487
488
487
488
490
490
485
490
490
481
489
491
486
491
493
489
491
491
492
489
492
492
489
499
505
502
513
517
514
521
524
522
523
521
518
511
508
502
494
497
497
487
490
491
486
492
492
491
491
491
492
489
492
493
488
498
508
519
549
576
581
568
525
473
433
413
416
430
458
482
491
506
514
508
517
519
514
520
522
523
525
527
529
526
531
534
530
537
541
534
541
544
544
549
551
554
558
563
566
567
575
577
569
573
572
561
562
553
542
536
527
518
509
504
500
491
492
488
478
484
484
478
481
481
476
479
477
480
479
481
482
476
482
486
478
484
484
477
484
485
483
487
486
486
483
486
486
479
484
487
480
489
490
484
488
488
485
487
489
491
491
494
495
488
493
495
488
494
496
493
497
497
497
499
500
505
506
515
517
516
525
528
521
527
523
512
511
504
500
499
500
498
493
496
496
489
495
495
484
490
491
490
494
494
494
494
499
508
519
547
569
571
560
522
471
441
423
420
438
460
480
496
506
512
511
518
521
514
520
524
519
526
526
524
528
528
531
531
534
537
557
537
542
539
548
553
551
559
559
558
562
563
567
564
567
565
558
560
557
543
539
528
513
511
503
496
495
491
490
482
484
484
479
484
483
475
482
481
475
480
480
479
483
482
482
478
481
485
481
488
489
481
485
486
481
487
487
487
487
487
488
485
491
491
485
490
491
483
490
491
488
493
497
500
507
513
516
515
519
523
516
522
521
510
511
507
497
497
495
491
492
493
493
489
493
492
485
492
493
486
492
493
490
493
495
500
513
534
560
566
561
528
478
448
429
419
435
453
469
489
497
505
510
516
519
515
522
525
517
524
525
521
525
528
528
532
534
536
535
539
544
539
549
555
550
559
561
558
564
567
567
569
568
567
559
558
554
539
537
529
515
512
507
496
496
493
490
487
485
486
482
487
486
478
484
488
482
488
488
485
487
487
486
486
487
487
483
484
486
481
487
489
481
486
486
481
484
483
483
483
484
485
480
486
486
481
486
490
486
496
502
505
510
511
515
517
520
521
513
511
508
494
495
493
486
488
486
484
486
487
487
485
487
488
482
489
491
483
489
490
486
496
512
533
561
574
564
527
483
444
412
413
424
441
470
488
495
506
508
508
510
513
516
515
521
524
518
525
526
518
527
530
526
531
534
534
537
540
544
543
550
553
548
558
562
557
564
567
562
564
562
555
548
542
534
521
517
510
497
498
495
485
487
486
479
482
480
479
479
483
485
480
484
485
477
482
484
479
484
484
482
484
486
484
485
488
491
486
489
493
484
488
488
485
491
492
489
490
488
488
487
493
494
487
494
494
486
492
495
490
499
504
507
515
517
521
522
526
527
517
519
516
503
502
497
488
488
488
486
506
487
488
484
486
487
483
490
492
488
495
498
495
501
510
530
558
583
586
553
506
459
416
408
419
434
464
485
495
506
510
511
513
516
518
517
523
526
519
525
527
520
529
531
529
534
535
537
541
545
548
546
552
554
550
560
564
561
565
567
563
566
565
562
556
549
541
525
519
512
497
499
496
487
488
485
478
479
477
477
476
479
479
475
480
483
473
478
480
477
481
484
480
482
482
483
482
485
485
480
484
487
478
486
488
482
486
488
487
487
486
488
484
487
489
484
490
491
483
489
489
485
489
491
492
494
496
495
492
497
502
497
508
513
510
518
537
518
523
522
519
514
512
508
498
499
498
487
492
492
483
489
490
486
489
490
491
490
492
492
488
495
499
499
522
551
569
584
570
525
479
438
415
410
426
452
471
496
508
506
515
520
514
521
522
520
524
525
528
526
530
530
526
533
538
531
540
542
539
547
551
551
555
556
559
558
564
569
563
569
570
563
565
562
550
545
537
526
520
514
507
498
496
491
482
485
486
476
480
479
472
475
475
474
474
477
479
477
481
484
476
483
486
479
484
487
483
484
483
482
483
486
491
486
489
489
481
488
490
482
487
487
484
487
488
489
490
493
495
489
495
496
486
493
495
488
493
496
492
496
496
494
492
496
500
501
512
519
513
522
526
520
527
529
523
523
519
513
505
504
500
489
493
496
489
498
497
492
496
497
494
497
498
498
495
501
505
506
524
546
560
581
574
537
495
453
424
416
426
446
466
489
504
505
517
520
511
519
520
515
542
524
524
527
532
534
531
534
534
528
539
546
540
548
551
547
552
556
556
558
561
563
560
566
568
558
564
564
551
551
542
530
524
516
508
502
497
493
484
487
489
480
487
487
479
481
482
478
481
481
482
482
485
485
480
484
487
478
484
485
477
484
487
484
488
486
485
485
488
489
484
489
489
479
485
487
483
488
489
485
487
487
489
488
493
496
490
494
495
486
491
494
489
495
495
493
494
494
494
493
495
498
495
503
507
504
516
521
519
525
526
525
526
525
524
513
511
505
493
495
495
487
492
493
488
491
490
487
487
491
493
491
494
497
490
504
517
532
566
588
580
552
504
454
420
411
421
438
469
488
494
508
514
509
515
517
515
520
521
523
523
527
529
524
532
534
529
538
542
538
543
547
545
550
553
555
553
557
558
557
564
569
562
567
566
554
555
547
536
530
524
519
510
505
499
489
491
490
480
484
487
480
484
483
481
481
481
480
475
477
479
473
481
486
481
490
495
486
486
482
478
478
481
487
487
496
500
494
498
495
480
482
483
480
487
491
491
491
490
487
480
487
498
498
507
505
491
493
493
489
493
497
499
497
498
496
494
504
508
499
501
501
492
498
500
497
504
507
506
504
508
510
509
522
529
523
530
533
528
532
532
521
515
509
504
500
495
492
484
491
494
489
495
497
494
498
499
493
492
493
496
503
516
530
542
566
574
548
514
467
423
408
417
440
470
496
510
513
516
516
508
515
517
509
516
518
512
519
524
529
535
534
534
531
539
544
539
547
549
541
567
554
550
553
553
553
557
563
567
563
568
563
548
546
538
520
517
512
502
498
492
483
475
474
474
473
477
477
466
471
471
464
468
470
464
468
471
472
474
477
477
469
472
476
471
480
483
474
479
482
478
484
486
486
484
486
487
480
485
488
481
489
492
483
486
488
485
491
493
494
489
490
490
485
492
498
492
499
503
500
505
506
501
501
504
510
512
521
525
520
527
528
518
525
530
525
526
523
514
511
509
505
500
501
501
494
499
502
495
502
503
499
502
502
500
501
503
507
510
532